"# Channel 1"
"# Trace 1"
Frequency, Formatted Data, Formatted Data
+6.00000000000E+007, +1.26432917811E+000, +0.00000000000E+000
+6.04000000000E+007, +1.22107230055E+000, +0.00000000000E+000
+6.08000000000E+007, +1.12838409824E+000, +0.00000000000E+000
+6.12000000000E+007, +1.00174403217E+000, +0.00000000000E+000
+6.16000000000E+007, +8.38881528002E-001, +0.00000000000E+000
+6.20000000000E+007, +6.62167999518E-001, +0.00000000000E+000
+6.24000000000E+007, +4.65000724422E-001, +0.00000000000E+000
+6.28000000000E+007, +2.70445866549E-001, +0.00000000000E+000
+6.32000000000E+007, +7.13916629781E-002, +0.00000000000E+000
+6.36000000000E+007, -1.25902719990E-001, +0.00000000000E+000
+6.40000000000E+007, -3.09948090296E-001, +0.00000000000E+000
+6.44000000000E+007, -4.80212391687E-001, +0.00000000000E+000
+6.48000000000E+007, -6.36215412104E-001, +0.00000000000E+000
+6.52000000000E+007, -7.68146506603E-001, +0.00000000000E+000
+6.56000000000E+007, -8.81829132120E-001, +0.00000000000E+000
+6.60000000000E+007, -9.80311644801E-001, +0.00000000000E+000
+6.64000000000E+007, -1.04816537057E+000, +0.00000000000E+000
+6.68000000000E+007, -1.12516260758E+000, +0.00000000000E+000
+6.72000000000E+007, -1.11597640511E+000, +0.00000000000E+000
+6.76000000000E+007, -1.11984742747E+000, +0.00000000000E+000
+6.80000000000E+007, -1.09985156129E+000, +0.00000000000E+000
+6.84000000000E+007, -1.06058142741E+000, +0.00000000000E+000
+6.88000000000E+007, -9.93993028873E-001, +0.00000000000E+000
+6.92000000000E+007, -9.13756375362E-001, +0.00000000000E+000
+6.96000000000E+007, -8.03888816314E-001, +0.00000000000E+000
+7.00000000000E+007, -6.74513018195E-001, +0.00000000000E+000
+7.04000000000E+007, -5.15721948453E-001, +0.00000000000E+000
+7.08000000000E+007, -3.44819659190E-001, +0.00000000000E+000
+7.12000000000E+007, -1.51751385218E-001, +0.00000000000E+000
+7.16000000000E+007, +4.80651964311E-002, +0.00000000000E+000
+7.20000000000E+007, +2.69944033251E-001, +0.00000000000E+000
+7.24000000000E+007, +4.97951106609E-001, +0.00000000000E+000
+7.28000000000E+007, +7.37303252959E-001, +0.00000000000E+000
+7.32000000000E+007, +9.74355592065E-001, +0.00000000000E+000
+7.36000000000E+007, +1.21447985231E+000, +0.00000000000E+000
+7.40000000000E+007, +1.44967335099E+000, +0.00000000000E+000
+7.44000000000E+007, +1.66428194793E+000, +0.00000000000E+000
+7.48000000000E+007, +1.86142846731E+000, +0.00000000000E+000
+7.52000000000E+007, +2.03157579516E+000, +0.00000000000E+000
+7.56000000000E+007, +2.17167863411E+000, +0.00000000000E+000
+7.60000000000E+007, +2.27951858915E+000, +0.00000000000E+000
+7.64000000000E+007, +2.35303193664E+000, +0.00000000000E+000
+7.68000000000E+007, +2.38163068715E+000, +0.00000000000E+000
+7.72000000000E+007, +2.37300259786E+000, +0.00000000000E+000
+7.76000000000E+007, +2.33398241624E+000, +0.00000000000E+000
+7.80000000000E+007, +2.26493244310E+000, +0.00000000000E+000
+7.84000000000E+007, +2.16689642591E+000, +0.00000000000E+000
+7.88000000000E+007, +2.05732968976E+000, +0.00000000000E+000
+7.92000000000E+007, +1.92110548536E+000, +0.00000000000E+000
+7.96000000000E+007, +1.78717294872E+000, +0.00000000000E+000
+8.00000000000E+007, +1.64705162913E+000, +0.00000000000E+000
+8.04000000000E+007, +1.50878577356E+000, +0.00000000000E+000
+8.08000000000E+007, +1.38147291497E+000, +0.00000000000E+000
+8.12000000000E+007, +1.26545233271E+000, +0.00000000000E+000
+8.16000000000E+007, +1.16152274282E+000, +0.00000000000E+000
+8.20000000000E+007, +1.09381511225E+000, +0.00000000000E+000
+8.24000000000E+007, +1.04008843810E+000, +0.00000000000E+000
+8.28000000000E+007, +1.00244464359E+000, +0.00000000000E+000
+8.32000000000E+007, +9.84834065001E-001, +0.00000000000E+000
+8.36000000000E+007, +9.89813546011E-001, +0.00000000000E+000
+8.40000000000E+007, +1.02740608222E+000, +0.00000000000E+000
+8.44000000000E+007, +1.08030647498E+000, +0.00000000000E+000
+8.48000000000E+007, +1.15172031486E+000, +0.00000000000E+000
+8.52000000000E+007, +1.24864120214E+000, +0.00000000000E+000
+8.56000000000E+007, +1.36921777489E+000, +0.00000000000E+000
+8.60000000000E+007, +1.50468505024E+000, +0.00000000000E+000
+8.64000000000E+007, +1.81017463116E+000, +0.00000000000E+000
+8.68000000000E+007, +1.83386705356E+000, +0.00000000000E+000
+8.72000000000E+007, +2.01558250026E+000, +0.00000000000E+000
+8.76000000000E+007, +2.20896576997E+000, +0.00000000000E+000
+8.80000000000E+007, +2.40160120571E+000, +0.00000000000E+000
+8.84000000000E+007, +2.60034987808E+000, +0.00000000000E+000
+8.88000000000E+007, +2.79655859198E+000, +0.00000000000E+000
+8.92000000000E+007, +2.97159676169E+000, +0.00000000000E+000
+8.96000000000E+007, +3.13749350199E+000, +0.00000000000E+000
+9.00000000000E+007, +3.28651243957E+000, +0.00000000000E+000
+9.04000000000E+007, +3.41722676428E+000, +0.00000000000E+000
+9.08000000000E+007, +3.51298400456E+000, +0.00000000000E+000
+9.12000000000E+007, +3.57617164551E+000, +0.00000000000E+000
+9.16000000000E+007, +3.60842348983E+000, +0.00000000000E+000
+9.20000000000E+007, +3.59846078337E+000, +0.00000000000E+000
+9.24000000000E+007, +3.55958979380E+000, +0.00000000000E+000
+9.28000000000E+007, +3.50317446149E+000, +0.00000000000E+000
+9.32000000000E+007, +3.41383343121E+000, +0.00000000000E+000
+9.36000000000E+007, +3.30802117195E+000, +0.00000000000E+000
+9.40000000000E+007, +3.19700231248E+000, +0.00000000000E+000
+9.44000000000E+007, +3.07441009998E+000, +0.00000000000E+000
+9.48000000000E+007, +2.94515280822E+000, +0.00000000000E+000
+9.52000000000E+007, +2.82345557837E+000, +0.00000000000E+000
+9.56000000000E+007, +2.70617353587E+000, +0.00000000000E+000
+9.60000000000E+007, +2.59298079426E+000, +0.00000000000E+000
+9.64000000000E+007, +2.49761965304E+000, +0.00000000000E+000
+9.68000000000E+007, +2.41447521759E+000, +0.00000000000E+000
+9.72000000000E+007, +2.34697857648E+000, +0.00000000000E+000
+9.76000000000E+007, +2.29520560809E+000, +0.00000000000E+000
+9.80000000000E+007, +2.26231472398E+000, +0.00000000000E+000
+9.84000000000E+007, +2.24545093069E+000, +0.00000000000E+000
+9.88000000000E+007, +2.25198907097E+000, +0.00000000000E+000
+9.92000000000E+007, +2.27475707983E+000, +0.00000000000E+000
+9.96000000000E+007, +2.32011068567E+000, +0.00000000000E+000
+1.00000000000E+008, +2.38122121277E+000, +0.00000000000E+000
+1.00400000000E+008, +2.46335810193E+000, +0.00000000000E+000
+1.00800000000E+008, +2.55956914543E+000, +0.00000000000E+000
+1.01200000000E+008, +2.67689860814E+000, +0.00000000000E+000
+1.01600000000E+008, +2.82064894094E+000, +0.00000000000E+000
+1.02000000000E+008, +2.96739619997E+000, +0.00000000000E+000
+1.02400000000E+008, +3.12823935331E+000, +0.00000000000E+000
+1.02800000000E+008, +3.29718326219E+000, +0.00000000000E+000
+1.03200000000E+008, +3.47678850156E+000, +0.00000000000E+000
+1.03600000000E+008, +3.65809271808E+000, +0.00000000000E+000
+1.04000000000E+008, +3.84477646676E+000, +0.00000000000E+000
+1.04400000000E+008, +4.00719095791E+000, +0.00000000000E+000
+1.04800000000E+008, +4.17168319291E+000, +0.00000000000E+000
+1.05200000000E+008, +4.31337240455E+000, +0.00000000000E+000
+1.05600000000E+008, +4.44413816053E+000, +0.00000000000E+000
+1.06000000000E+008, +4.54872344237E+000, +0.00000000000E+000
+1.06400000000E+008, +4.63282333772E+000, +0.00000000000E+000
+1.06800000000E+008, +4.68190439811E+000, +0.00000000000E+000
+1.07200000000E+008, +4.71217657420E+000, +0.00000000000E+000
+1.07600000000E+008, +4.71512491440E+000, +0.00000000000E+000
+1.08000000000E+008, +4.69304248347E+000, +0.00000000000E+000
+1.08400000000E+008, +4.64292727934E+000, +0.00000000000E+000
+1.08800000000E+008, +4.57345962807E+000, +0.00000000000E+000
+1.09200000000E+008, +4.49012545440E+000, +0.00000000000E+000
+1.09600000000E+008, +4.39071911353E+000, +0.00000000000E+000
+1.10000000000E+008, +4.28607051537E+000, +0.00000000000E+000
+1.10400000000E+008, +4.18137791858E+000, +0.00000000000E+000
+1.10800000000E+008, +4.07036039947E+000, +0.00000000000E+000
+1.11200000000E+008, +3.97044704329E+000, +0.00000000000E+000
+1.11600000000E+008, +3.87798103436E+000, +0.00000000000E+000
+1.12000000000E+008, +3.79669486265E+000, +0.00000000000E+000
+1.12400000000E+008, +3.72735225468E+000, +0.00000000000E+000
+1.12800000000E+008, +3.67971029820E+000, +0.00000000000E+000
+1.13200000000E+008, +3.64490264287E+000, +0.00000000000E+000
+1.13600000000E+008, +3.62467841219E+000, +0.00000000000E+000
+1.14000000000E+008, +3.62973249965E+000, +0.00000000000E+000
+1.14400000000E+008, +3.65195352823E+000, +0.00000000000E+000
+1.14800000000E+008, +3.69949238054E+000, +0.00000000000E+000
+1.15200000000E+008, +3.76217309886E+000, +0.00000000000E+000
+1.15600000000E+008, +3.84832165877E+000, +0.00000000000E+000
+1.16000000000E+008, +3.95008227548E+000, +0.00000000000E+000
+1.16400000000E+008, +4.06381383095E+000, +0.00000000000E+000
+1.16800000000E+008, +4.20379634343E+000, +0.00000000000E+000
+1.17200000000E+008, +4.35162993076E+000, +0.00000000000E+000
+1.17600000000E+008, +4.50896715464E+000, +0.00000000000E+000
+1.18000000000E+008, +4.67655387744E+000, +0.00000000000E+000
+1.18400000000E+008, +4.84840360117E+000, +0.00000000000E+000
+1.18800000000E+008, +5.01787538507E+000, +0.00000000000E+000
+1.19200000000E+008, +5.18601384466E+000, +0.00000000000E+000
+1.19600000000E+008, +5.34556535691E+000, +0.00000000000E+000
+1.20000000000E+008, +5.49031699798E+000, +0.00000000000E+000
+1.20400000000E+008, +5.62765903042E+000, +0.00000000000E+000
+1.20800000000E+008, +5.73412117827E+000, +0.00000000000E+000
+1.21200000000E+008, +5.82411245625E+000, +0.00000000000E+000
+1.21600000000E+008, +5.89124469298E+000, +0.00000000000E+000
+1.22000000000E+008, +5.93031193370E+000, +0.00000000000E+000
+1.22400000000E+008, +5.94358831222E+000, +0.00000000000E+000
+1.22800000000E+008, +5.93550451204E+000, +0.00000000000E+000
+1.23200000000E+008, +5.89027176403E+000, +0.00000000000E+000
+1.23600000000E+008, +5.83206640131E+000, +0.00000000000E+000
+1.24000000000E+008, +5.75597200243E+000, +0.00000000000E+000
+1.24400000000E+008, +5.66030866536E+000, +0.00000000000E+000
+1.24800000000E+008, +5.54630602316E+000, +0.00000000000E+000
+1.25200000000E+008, +5.42989569573E+000, +0.00000000000E+000
+1.25600000000E+008, +5.30812711983E+000, +0.00000000000E+000
+1.26000000000E+008, +5.18127092142E+000, +0.00000000000E+000
+1.26400000000E+008, +5.05879994840E+000, +0.00000000000E+000
+1.26800000000E+008, +4.93753187471E+000, +0.00000000000E+000
+1.27200000000E+008, +4.82559388986E+000, +0.00000000000E+000
+1.27600000000E+008, +4.72110932145E+000, +0.00000000000E+000
+1.28000000000E+008, +4.62823000802E+000, +0.00000000000E+000
+1.28400000000E+008, +4.54670147441E+000, +0.00000000000E+000
+1.28800000000E+008, +4.47742552320E+000, +0.00000000000E+000
+1.29200000000E+008, +4.42740315166E+000, +0.00000000000E+000
+1.29600000000E+008, +4.38420395469E+000, +0.00000000000E+000
+1.30000000000E+008, +4.35531600937E+000, +0.00000000000E+000
+1.30400000000E+008, +4.33662319158E+000, +0.00000000000E+000
+1.30800000000E+008, +4.33306151714E+000, +0.00000000000E+000
+1.31200000000E+008, +4.34380047958E+000, +0.00000000000E+000
+1.31600000000E+008, +4.29934640925E+000, +0.00000000000E+000
+1.32000000000E+008, +4.41002163669E+000, +0.00000000000E+000
+1.32400000000E+008, +4.45925550983E+000, +0.00000000000E+000
+1.32800000000E+008, +4.52670646387E+000, +0.00000000000E+000
+1.33200000000E+008, +4.60111254670E+000, +0.00000000000E+000
+1.33600000000E+008, +4.69356555299E+000, +0.00000000000E+000
+1.34000000000E+008, +4.79845347593E+000, +0.00000000000E+000
+1.34400000000E+008, +4.91191055313E+000, +0.00000000000E+000
+1.34800000000E+008, +5.04022509332E+000, +0.00000000000E+000
+1.35200000000E+008, +5.17799719352E+000, +0.00000000000E+000
+1.35600000000E+008, +5.32168324194E+000, +0.00000000000E+000
+1.36000000000E+008, +5.48002326419E+000, +0.00000000000E+000
+1.36400000000E+008, +5.63892231842E+000, +0.00000000000E+000
+1.36800000000E+008, +5.81057787617E+000, +0.00000000000E+000
+1.37200000000E+008, +5.98091687929E+000, +0.00000000000E+000
+1.37600000000E+008, +6.15504477527E+000, +0.00000000000E+000
+1.38000000000E+008, +6.32508829865E+000, +0.00000000000E+000
+1.38400000000E+008, +6.50154583763E+000, +0.00000000000E+000
+1.38800000000E+008, +6.66502130187E+000, +0.00000000000E+000
+1.39200000000E+008, +6.82600239146E+000, +0.00000000000E+000
+1.39600000000E+008, +6.97477813698E+000, +0.00000000000E+000
+1.40000000000E+008, +7.11006972386E+000, +0.00000000000E+000
