"# Channel 1"
"# Trace 1"
Frequency, Formatted Data, Formatted Data
+6.00000000000E+007, +1.15867284455E+000, +0.00000000000E+000
+6.04000000000E+007, +1.22217124194E+000, +0.00000000000E+000
+6.08000000000E+007, +1.22244661669E+000, +0.00000000000E+000
+6.12000000000E+007, +1.14968627075E+000, +0.00000000000E+000
+6.16000000000E+007, +1.00276897060E+000, +0.00000000000E+000
+6.20000000000E+007, +8.14982718393E-001, +0.00000000000E+000
+6.24000000000E+007, +5.88854859448E-001, +0.00000000000E+000
+6.28000000000E+007, +3.66564536049E-001, +0.00000000000E+000
+6.32000000000E+007, +1.49788288614E-001, +0.00000000000E+000
+6.36000000000E+007, -5.58704285855E-002, +0.00000000000E+000
+6.40000000000E+007, -2.46984321251E-001, +0.00000000000E+000
+6.44000000000E+007, -4.27731252638E-001, +0.00000000000E+000
+6.48000000000E+007, -5.79859474785E-001, +0.00000000000E+000
+6.52000000000E+007, -7.20594092752E-001, +0.00000000000E+000
+6.56000000000E+007, -8.32995005646E-001, +0.00000000000E+000
+6.60000000000E+007, -9.25170880931E-001, +0.00000000000E+000
+6.64000000000E+007, -9.95237474413E-001, +0.00000000000E+000
+6.68000000000E+007, -1.03972287588E+000, +0.00000000000E+000
+6.72000000000E+007, -1.06223540709E+000, +0.00000000000E+000
+6.76000000000E+007, -1.06378165217E+000, +0.00000000000E+000
+6.80000000000E+007, -1.04061803558E+000, +0.00000000000E+000
+6.84000000000E+007, -1.00016936514E+000, +0.00000000000E+000
+6.88000000000E+007, -9.28519895709E-001, +0.00000000000E+000
+6.92000000000E+007, -8.39193703327E-001, +0.00000000000E+000
+6.96000000000E+007, -7.29692558699E-001, +0.00000000000E+000
+7.00000000000E+007, -5.97348396644E-001, +0.00000000000E+000
+7.04000000000E+007, -4.38320671795E-001, +0.00000000000E+000
+7.08000000000E+007, -2.63207936172E-001, +0.00000000000E+000
+7.12000000000E+007, -6.47865899910E-002, +0.00000000000E+000
+7.16000000000E+007, +1.50008470318E-001, +0.00000000000E+000
+7.20000000000E+007, +3.81788647899E-001, +0.00000000000E+000
+7.24000000000E+007, +6.26840327947E-001, +0.00000000000E+000
+7.28000000000E+007, +8.83334284845E-001, +0.00000000000E+000
+7.32000000000E+007, +1.13770672252E+000, +0.00000000000E+000
+7.36000000000E+007, +1.39301686692E+000, +0.00000000000E+000
+7.40000000000E+007, +1.64288815388E+000, +0.00000000000E+000
+7.44000000000E+007, +1.88076629371E+000, +0.00000000000E+000
+7.48000000000E+007, +2.08537405789E+000, +0.00000000000E+000
+7.52000000000E+007, +2.25917592290E+000, +0.00000000000E+000
+7.56000000000E+007, +2.40397710255E+000, +0.00000000000E+000
+7.60000000000E+007, +2.50549107850E+000, +0.00000000000E+000
+7.64000000000E+007, +2.57599307537E+000, +0.00000000000E+000
+7.68000000000E+007, +2.60250224233E+000, +0.00000000000E+000
+7.72000000000E+007, +2.58707139621E+000, +0.00000000000E+000
+7.76000000000E+007, +2.52268207896E+000, +0.00000000000E+000
+7.80000000000E+007, +2.42581138670E+000, +0.00000000000E+000
+7.84000000000E+007, +2.30407008449E+000, +0.00000000000E+000
+7.88000000000E+007, +2.17099141795E+000, +0.00000000000E+000
+7.92000000000E+007, +2.02925746615E+000, +0.00000000000E+000
+7.96000000000E+007, +1.87347820403E+000, +0.00000000000E+000
+8.00000000000E+007, +1.72507561741E+000, +0.00000000000E+000
+8.04000000000E+007, +1.58718465416E+000, +0.00000000000E+000
+8.08000000000E+007, +1.45967159617E+000, +0.00000000000E+000
+8.12000000000E+007, +1.34606154833E+000, +0.00000000000E+000
+8.16000000000E+007, +1.25326404922E+000, +0.00000000000E+000
+8.20000000000E+007, +1.17671680964E+000, +0.00000000000E+000
+8.24000000000E+007, +1.12023984084E+000, +0.00000000000E+000
+8.28000000000E+007, +1.08653241396E+000, +0.00000000000E+000
+8.32000000000E+007, +1.07589742550E+000, +0.00000000000E+000
+8.36000000000E+007, +1.08798936512E+000, +0.00000000000E+000
+8.40000000000E+007, +1.12258614111E+000, +0.00000000000E+000
+8.44000000000E+007, +1.18166375236E+000, +0.00000000000E+000
+8.48000000000E+007, +1.26801060516E+000, +0.00000000000E+000
+8.52000000000E+007, +1.37317081994E+000, +0.00000000000E+000
+8.56000000000E+007, +1.50226038426E+000, +0.00000000000E+000
+8.60000000000E+007, +1.64634436906E+000, +0.00000000000E+000
+8.64000000000E+007, +1.81794743471E+000, +0.00000000000E+000
+8.68000000000E+007, +2.00349327068E+000, +0.00000000000E+000
+8.72000000000E+007, +2.19703418218E+000, +0.00000000000E+000
+8.76000000000E+007, +2.39350264521E+000, +0.00000000000E+000
+8.80000000000E+007, +2.60909188398E+000, +0.00000000000E+000
+8.84000000000E+007, +2.80916076288E+000, +0.00000000000E+000
+8.88000000000E+007, +3.01100346303E+000, +0.00000000000E+000
+8.92000000000E+007, +3.19698971462E+000, +0.00000000000E+000
+8.96000000000E+007, +3.37319726751E+000, +0.00000000000E+000
+9.00000000000E+007, +3.51402052638E+000, +0.00000000000E+000
+9.04000000000E+007, +3.62840327410E+000, +0.00000000000E+000
+9.08000000000E+007, +3.70918660299E+000, +0.00000000000E+000
+9.12000000000E+007, +3.75741531721E+000, +0.00000000000E+000
+9.16000000000E+007, +3.76579198067E+000, +0.00000000000E+000
+9.20000000000E+007, +3.74495586559E+000, +0.00000000000E+000
+9.24000000000E+007, +3.69516834377E+000, +0.00000000000E+000
+9.28000000000E+007, +3.61257988455E+000, +0.00000000000E+000
+9.32000000000E+007, +3.51357709295E+000, +0.00000000000E+000
+9.36000000000E+007, +3.40322714266E+000, +0.00000000000E+000
+9.40000000000E+007, +3.27181054948E+000, +0.00000000000E+000
+9.44000000000E+007, +3.12587618616E+000, +0.00000000000E+000
+9.48000000000E+007, +2.99432239595E+000, +0.00000000000E+000
+9.52000000000E+007, +2.86461501888E+000, +0.00000000000E+000
+9.56000000000E+007, +2.74334250094E+000, +0.00000000000E+000
+9.60000000000E+007, +2.63543595087E+000, +0.00000000000E+000
+9.64000000000E+007, +2.53786381552E+000, +0.00000000000E+000
+9.68000000000E+007, +2.45604499110E+000, +0.00000000000E+000
+9.72000000000E+007, +2.39678208568E+000, +0.00000000000E+000
+9.76000000000E+007, +2.35087022629E+000, +0.00000000000E+000
+9.80000000000E+007, +2.31856761874E+000, +0.00000000000E+000
+9.84000000000E+007, +2.30720498431E+000, +0.00000000000E+000
+9.88000000000E+007, +2.31911823569E+000, +0.00000000000E+000
+9.92000000000E+007, +2.34177148613E+000, +0.00000000000E+000
+9.96000000000E+007, +2.39264437011E+000, +0.00000000000E+000
+1.00000000000E+008, +2.45753277966E+000, +0.00000000000E+000
+1.00400000000E+008, +2.54245333299E+000, +0.00000000000E+000
+1.00800000000E+008, +2.64692045994E+000, +0.00000000000E+000
+1.01200000000E+008, +2.76613506199E+000, +0.00000000000E+000
+1.01600000000E+008, +2.90927874961E+000, +0.00000000000E+000
+1.02000000000E+008, +3.06336120016E+000, +0.00000000000E+000
+1.02400000000E+008, +3.23285138687E+000, +0.00000000000E+000
+1.02800000000E+008, +3.41086066675E+000, +0.00000000000E+000
+1.03200000000E+008, +3.59408407141E+000, +0.00000000000E+000
+1.03600000000E+008, +3.77696720270E+000, +0.00000000000E+000
+1.04000000000E+008, +3.96596585697E+000, +0.00000000000E+000
+1.04400000000E+008, +4.14025066111E+000, +0.00000000000E+000
+1.04800000000E+008, +4.31147596239E+000, +0.00000000000E+000
+1.05200000000E+008, +4.46789937218E+000, +0.00000000000E+000
+1.05600000000E+008, +4.60158656691E+000, +0.00000000000E+000
+1.06000000000E+008, +4.71492128731E+000, +0.00000000000E+000
+1.06400000000E+008, +4.79559045361E+000, +0.00000000000E+000
+1.06800000000E+008, +4.84577774498E+000, +0.00000000000E+000
+1.07200000000E+008, +4.86581191204E+000, +0.00000000000E+000
+1.07600000000E+008, +4.85546673816E+000, +0.00000000000E+000
+1.08000000000E+008, +4.81928659258E+000, +0.00000000000E+000
+1.08400000000E+008, +4.75642361861E+000, +0.00000000000E+000
+1.08800000000E+008, +4.67870686240E+000, +0.00000000000E+000
+1.09200000000E+008, +4.58074123295E+000, +0.00000000000E+000
+1.09600000000E+008, +4.47567029895E+000, +0.00000000000E+000
+1.10000000000E+008, +4.36336180400E+000, +0.00000000000E+000
+1.10400000000E+008, +4.24987037147E+000, +0.00000000000E+000
+1.10800000000E+008, +4.14044286352E+000, +0.00000000000E+000
+1.11200000000E+008, +4.03732927286E+000, +0.00000000000E+000
+1.11600000000E+008, +3.94474344496E+000, +0.00000000000E+000
+1.12000000000E+008, +3.86842086103E+000, +0.00000000000E+000
+1.12400000000E+008, +3.80037683267E+000, +0.00000000000E+000
+1.12800000000E+008, +3.75325838140E+000, +0.00000000000E+000
+1.13200000000E+008, +3.72128199597E+000, +0.00000000000E+000
+1.13600000000E+008, +3.70887813188E+000, +0.00000000000E+000
+1.14000000000E+008, +3.71517118259E+000, +0.00000000000E+000
+1.14400000000E+008, +3.74690533005E+000, +0.00000000000E+000
+1.14800000000E+008, +3.79465089164E+000, +0.00000000000E+000
+1.15200000000E+008, +3.86924499304E+000, +0.00000000000E+000
+1.15600000000E+008, +3.95892391380E+000, +0.00000000000E+000
+1.16000000000E+008, +4.07125910333E+000, +0.00000000000E+000
+1.16400000000E+008, +4.20020487886E+000, +0.00000000000E+000
+1.16800000000E+008, +4.34453938391E+000, +0.00000000000E+000
+1.17200000000E+008, +4.49942600770E+000, +0.00000000000E+000
+1.17600000000E+008, +4.66841118723E+000, +0.00000000000E+000
+1.18000000000E+008, +4.85003478538E+000, +0.00000000000E+000
+1.18400000000E+008, +5.03051550291E+000, +0.00000000000E+000
+1.18800000000E+008, +5.21528258827E+000, +0.00000000000E+000
+1.19200000000E+008, +5.39448117689E+000, +0.00000000000E+000
+1.19600000000E+008, +5.55871758733E+000, +0.00000000000E+000
+1.20000000000E+008, +5.69819975789E+000, +0.00000000000E+000
+1.20400000000E+008, +5.82392340367E+000, +0.00000000000E+000
+1.20800000000E+008, +5.92881155831E+000, +0.00000000000E+000
+1.21200000000E+008, +6.01161835304E+000, +0.00000000000E+000
+1.21600000000E+008, +6.07117823233E+000, +0.00000000000E+000
+1.22000000000E+008, +6.10913681949E+000, +0.00000000000E+000
+1.22400000000E+008, +6.11816794751E+000, +0.00000000000E+000
+1.22800000000E+008, +6.09874757838E+000, +0.00000000000E+000
+1.23200000000E+008, +6.03989434580E+000, +0.00000000000E+000
+1.23600000000E+008, +5.95183862379E+000, +0.00000000000E+000
+1.24000000000E+008, +5.85106352232E+000, +0.00000000000E+000
+1.24400000000E+008, +5.73692146641E+000, +0.00000000000E+000
+1.24800000000E+008, +5.61603341611E+000, +0.00000000000E+000
+1.25200000000E+008, +5.48963151264E+000, +0.00000000000E+000
+1.25600000000E+008, +5.35711980185E+000, +0.00000000000E+000
+1.26000000000E+008, +5.22812322622E+000, +0.00000000000E+000
+1.26400000000E+008, +5.10006413694E+000, +0.00000000000E+000
+1.26800000000E+008, +4.97918898025E+000, +0.00000000000E+000
+1.27200000000E+008, +4.86846759472E+000, +0.00000000000E+000
+1.27600000000E+008, +4.76517944512E+000, +0.00000000000E+000
+1.28000000000E+008, +4.67540097532E+000, +0.00000000000E+000
+1.28400000000E+008, +4.59625226225E+000, +0.00000000000E+000
+1.28800000000E+008, +4.52988192577E+000, +0.00000000000E+000
+1.29200000000E+008, +4.48136985868E+000, +0.00000000000E+000
+1.29600000000E+008, +4.44332630059E+000, +0.00000000000E+000
+1.30000000000E+008, +4.41562739687E+000, +0.00000000000E+000
+1.30400000000E+008, +4.40098825873E+000, +0.00000000000E+000
+1.30800000000E+008, +4.40405582302E+000, +0.00000000000E+000
+1.31200000000E+008, +4.41840854138E+000, +0.00000000000E+000
+1.31600000000E+008, +4.44834551449E+000, +0.00000000000E+000
+1.32000000000E+008, +4.49097681282E+000, +0.00000000000E+000
+1.32400000000E+008, +4.54992431351E+000, +0.00000000000E+000
+1.32800000000E+008, +4.62071903963E+000, +0.00000000000E+000
+1.33200000000E+008, +4.70715718732E+000, +0.00000000000E+000
+1.33600000000E+008, +4.80689532944E+000, +0.00000000000E+000
+1.34000000000E+008, +4.92054357420E+000, +0.00000000000E+000
+1.34400000000E+008, +5.04785381212E+000, +0.00000000000E+000
+1.34800000000E+008, +5.18663076559E+000, +0.00000000000E+000
+1.35200000000E+008, +5.33604562442E+000, +0.00000000000E+000
+1.35600000000E+008, +5.49576321394E+000, +0.00000000000E+000
+1.36000000000E+008, +5.66951964012E+000, +0.00000000000E+000
+1.36400000000E+008, +5.85006485070E+000, +0.00000000000E+000
+1.36800000000E+008, +6.03663391200E+000, +0.00000000000E+000
+1.37200000000E+008, +6.21964768522E+000, +0.00000000000E+000
+1.37600000000E+008, +6.39416781489E+000, +0.00000000000E+000
+1.38000000000E+008, +6.56147638300E+000, +0.00000000000E+000
+1.38400000000E+008, +6.71941242331E+000, +0.00000000000E+000
+1.38800000000E+008, +6.85822834223E+000, +0.00000000000E+000
+1.39200000000E+008, +6.98382797522E+000, +0.00000000000E+000
+1.39600000000E+008, +7.08990674987E+000, +0.00000000000E+000
+1.40000000000E+008, +7.18907407377E+000, +0.00000000000E+000
