"# Channel 1"
"# Trace 1"
Frequency, Formatted Data, Formatted Data
+6.00000000000E+007, -2.40527546843E+000, +0.00000000000E+000
+6.04000000000E+007, -2.27757509109E+000, +0.00000000000E+000
+6.08000000000E+007, -2.16527464016E+000, +0.00000000000E+000
+6.12000000000E+007, -2.09226620842E+000, +0.00000000000E+000
+6.16000000000E+007, -2.03145018533E+000, +0.00000000000E+000
+6.20000000000E+007, -1.96659708442E+000, +0.00000000000E+000
+6.24000000000E+007, -1.92406992745E+000, +0.00000000000E+000
+6.28000000000E+007, -1.89003276284E+000, +0.00000000000E+000
+6.32000000000E+007, -1.96126756147E+000, +0.00000000000E+000
+6.36000000000E+007, -2.20598698587E+000, +0.00000000000E+000
+6.40000000000E+007, -2.49896945492E+000, +0.00000000000E+000
+6.44000000000E+007, -2.75073449211E+000, +0.00000000000E+000
+6.48000000000E+007, -2.95517996695E+000, +0.00000000000E+000
+6.52000000000E+007, -3.09000489294E+000, +0.00000000000E+000
+6.56000000000E+007, -3.20463510108E+000, +0.00000000000E+000
+6.60000000000E+007, -3.29072904236E+000, +0.00000000000E+000
+6.64000000000E+007, -3.35584097300E+000, +0.00000000000E+000
+6.68000000000E+007, -3.41071265811E+000, +0.00000000000E+000
+6.72000000000E+007, -3.43202354773E+000, +0.00000000000E+000
+6.76000000000E+007, -3.42096412288E+000, +0.00000000000E+000
+6.80000000000E+007, -3.38420338135E+000, +0.00000000000E+000
+6.84000000000E+007, -3.31166057480E+000, +0.00000000000E+000
+6.88000000000E+007, -3.21334387686E+000, +0.00000000000E+000
+6.92000000000E+007, -3.09435200152E+000, +0.00000000000E+000
+6.96000000000E+007, -2.93414874146E+000, +0.00000000000E+000
+7.00000000000E+007, -2.75776221616E+000, +0.00000000000E+000
+7.04000000000E+007, -2.53817092064E+000, +0.00000000000E+000
+7.08000000000E+007, -2.30148243526E+000, +0.00000000000E+000
+7.12000000000E+007, -2.05798341326E+000, +0.00000000000E+000
+7.16000000000E+007, -1.90468083927E+000, +0.00000000000E+000
+7.20000000000E+007, -1.82467440673E+000, +0.00000000000E+000
+7.24000000000E+007, -1.75826559780E+000, +0.00000000000E+000
+7.28000000000E+007, -1.63074183943E+000, +0.00000000000E+000
+7.32000000000E+007, -1.45843288308E+000, +0.00000000000E+000
+7.36000000000E+007, -1.30618848561E+000, +0.00000000000E+000
+7.40000000000E+007, -1.17221846204E+000, +0.00000000000E+000
+7.44000000000E+007, -1.03211770535E+000, +0.00000000000E+000
+7.48000000000E+007, -8.78741023437E-001, +0.00000000000E+000
+7.52000000000E+007, -6.95375410577E-001, +0.00000000000E+000
+7.56000000000E+007, -4.86396917782E-001, +0.00000000000E+000
+7.60000000000E+007, -2.65904428500E-001, +0.00000000000E+000
+7.64000000000E+007, -5.89173978427E-002, +0.00000000000E+000
+7.68000000000E+007, +1.21852642778E-001, +0.00000000000E+000
+7.72000000000E+007, +3.06262417899E-001, +0.00000000000E+000
+7.76000000000E+007, +4.56437581004E-001, +0.00000000000E+000
+7.80000000000E+007, +5.80998967819E-001, +0.00000000000E+000
+7.84000000000E+007, +6.96186213533E-001, +0.00000000000E+000
+7.88000000000E+007, +7.64097227796E-001, +0.00000000000E+000
+7.92000000000E+007, +7.05454261224E-001, +0.00000000000E+000
+7.96000000000E+007, +4.72968918194E-001, +0.00000000000E+000
+8.00000000000E+007, +1.58498723819E-001, +0.00000000000E+000
+8.04000000000E+007, -9.87229423076E-002, +0.00000000000E+000
+8.08000000000E+007, -3.16160921690E-001, +0.00000000000E+000
+8.12000000000E+007, -4.74314475895E-001, +0.00000000000E+000
+8.16000000000E+007, -5.95607267985E-001, +0.00000000000E+000
+8.20000000000E+007, -6.91881364743E-001, +0.00000000000E+000
+8.24000000000E+007, -7.46276592876E-001, +0.00000000000E+000
+8.28000000000E+007, -7.78408740298E-001, +0.00000000000E+000
+8.32000000000E+007, -7.89379367551E-001, +0.00000000000E+000
+8.36000000000E+007, -7.81470724403E-001, +0.00000000000E+000
+8.40000000000E+007, -7.38068376100E-001, +0.00000000000E+000
+8.44000000000E+007, -6.84094976640E-001, +0.00000000000E+000
+8.48000000000E+007, -5.98153689564E-001, +0.00000000000E+000
+8.52000000000E+007, -4.70517359575E-001, +0.00000000000E+000
+8.56000000000E+007, -2.86208108627E-001, +0.00000000000E+000
+8.60000000000E+007, -7.08426935332E-002, +0.00000000000E+000
+8.64000000000E+007, +1.18897490626E-001, +0.00000000000E+000
+8.68000000000E+007, +2.80536552659E-001, +0.00000000000E+000
+8.72000000000E+007, +4.34159005229E-001, +0.00000000000E+000
+8.76000000000E+007, +5.80388984063E-001, +0.00000000000E+000
+8.80000000000E+007, +7.16532991810E-001, +0.00000000000E+000
+8.84000000000E+007, +8.54129713307E-001, +0.00000000000E+000
+8.88000000000E+007, +9.93167373313E-001, +0.00000000000E+000
+8.92000000000E+007, +1.12693902907E+000, +0.00000000000E+000
+8.96000000000E+007, +1.28022385411E+000, +0.00000000000E+000
+9.00000000000E+007, +1.44415526304E+000, +0.00000000000E+000
+9.04000000000E+007, +1.60746134056E+000, +0.00000000000E+000
+9.08000000000E+007, +1.73756163651E+000, +0.00000000000E+000
+9.12000000000E+007, +1.89939772927E+000, +0.00000000000E+000
+9.16000000000E+007, +2.04871407185E+000, +0.00000000000E+000
+9.20000000000E+007, +2.18958079582E+000, +0.00000000000E+000
+9.24000000000E+007, +2.31653458450E+000, +0.00000000000E+000
+9.28000000000E+007, +2.41212858642E+000, +0.00000000000E+000
+9.32000000000E+007, +2.43062223160E+000, +0.00000000000E+000
+9.36000000000E+007, +2.33714630903E+000, +0.00000000000E+000
+9.40000000000E+007, +2.13381270749E+000, +0.00000000000E+000
+9.44000000000E+007, +1.89521599550E+000, +0.00000000000E+000
+9.48000000000E+007, +1.65198328883E+000, +0.00000000000E+000
+9.52000000000E+007, +1.42657957774E+000, +0.00000000000E+000
+9.56000000000E+007, +1.22127749137E+000, +0.00000000000E+000
+9.60000000000E+007, +1.03701067182E+000, +0.00000000000E+000
+9.64000000000E+007, +8.83269978298E-001, +0.00000000000E+000
+9.68000000000E+007, +7.56218630941E-001, +0.00000000000E+000
+9.72000000000E+007, +6.51880154568E-001, +0.00000000000E+000
+9.76000000000E+007, +5.75542161375E-001, +0.00000000000E+000
+9.80000000000E+007, +5.16326445607E-001, +0.00000000000E+000
+9.84000000000E+007, +4.75624656033E-001, +0.00000000000E+000
+9.88000000000E+007, +4.63928083055E-001, +0.00000000000E+000
+9.92000000000E+007, +4.63677332381E-001, +0.00000000000E+000
+9.96000000000E+007, +4.80264891428E-001, +0.00000000000E+000
+1.00000000000E+008, +5.13317143380E-001, +0.00000000000E+000
+1.00400000000E+008, +5.79468141883E-001, +0.00000000000E+000
+1.00800000000E+008, +6.72682625184E-001, +0.00000000000E+000
+1.01200000000E+008, +7.90640091774E-001, +0.00000000000E+000
+1.01600000000E+008, +9.24783751323E-001, +0.00000000000E+000
+1.02000000000E+008, +1.06332125561E+000, +0.00000000000E+000
+1.02400000000E+008, +1.18375836758E+000, +0.00000000000E+000
+1.02800000000E+008, +1.29226872756E+000, +0.00000000000E+000
+1.03200000000E+008, +1.38807406052E+000, +0.00000000000E+000
+1.03600000000E+008, +1.49480307152E+000, +0.00000000000E+000
+1.04000000000E+008, +1.61513639835E+000, +0.00000000000E+000
+1.04400000000E+008, +1.74737255526E+000, +0.00000000000E+000
+1.04800000000E+008, +1.89600534829E+000, +0.00000000000E+000
+1.05200000000E+008, +2.03270844642E+000, +0.00000000000E+000
+1.05600000000E+008, +2.20216813959E+000, +0.00000000000E+000
+1.06000000000E+008, +2.37262412979E+000, +0.00000000000E+000
+1.06400000000E+008, +2.57044609819E+000, +0.00000000000E+000
+1.06800000000E+008, +2.78436226077E+000, +0.00000000000E+000
+1.07200000000E+008, +2.98297510707E+000, +0.00000000000E+000
+1.07600000000E+008, +3.16472947745E+000, +0.00000000000E+000
+1.08000000000E+008, +3.32382495902E+000, +0.00000000000E+000
+1.08400000000E+008, +3.44989576817E+000, +0.00000000000E+000
+1.08800000000E+008, +3.51085448928E+000, +0.00000000000E+000
+1.09200000000E+008, +3.46118543393E+000, +0.00000000000E+000
+1.09600000000E+008, +3.31218852323E+000, +0.00000000000E+000
+1.10000000000E+008, +3.08425663104E+000, +0.00000000000E+000
+1.10400000000E+008, +2.84859870644E+000, +0.00000000000E+000
+1.10800000000E+008, +2.62800194581E+000, +0.00000000000E+000
+1.11200000000E+008, +2.44473457611E+000, +0.00000000000E+000
+1.11600000000E+008, +2.30762183846E+000, +0.00000000000E+000
+1.12000000000E+008, +2.22149932928E+000, +0.00000000000E+000
+1.12400000000E+008, +2.15963407485E+000, +0.00000000000E+000
+1.12800000000E+008, +2.12728688785E+000, +0.00000000000E+000
+1.13200000000E+008, +2.11090751940E+000, +0.00000000000E+000
+1.13600000000E+008, +2.13694526559E+000, +0.00000000000E+000
+1.14000000000E+008, +2.18486159952E+000, +0.00000000000E+000
+1.14400000000E+008, +2.26052764258E+000, +0.00000000000E+000
+1.14800000000E+008, +2.35835155716E+000, +0.00000000000E+000
+1.15200000000E+008, +2.47242724842E+000, +0.00000000000E+000
+1.15600000000E+008, +2.60168153249E+000, +0.00000000000E+000
+1.16000000000E+008, +2.72060079205E+000, +0.00000000000E+000
+1.16400000000E+008, +2.80517853743E+000, +0.00000000000E+000
+1.16800000000E+008, +2.84927983521E+000, +0.00000000000E+000
+1.17200000000E+008, +2.86308787323E+000, +0.00000000000E+000
+1.17600000000E+008, +2.87541981218E+000, +0.00000000000E+000
+1.18000000000E+008, +2.89214274298E+000, +0.00000000000E+000
+1.18400000000E+008, +2.91497080986E+000, +0.00000000000E+000
+1.18800000000E+008, +2.95657714449E+000, +0.00000000000E+000
+1.19200000000E+008, +3.01263115406E+000, +0.00000000000E+000
+1.19600000000E+008, +3.09247046824E+000, +0.00000000000E+000
+1.20000000000E+008, +3.18168683294E+000, +0.00000000000E+000
+1.20400000000E+008, +3.27425476968E+000, +0.00000000000E+000
+1.20800000000E+008, +3.37209407747E+000, +0.00000000000E+000
+1.21200000000E+008, +3.46506785495E+000, +0.00000000000E+000
+1.21600000000E+008, +3.56684224101E+000, +0.00000000000E+000
+1.22000000000E+008, +3.66582947649E+000, +0.00000000000E+000
+1.22400000000E+008, +3.75382365534E+000, +0.00000000000E+000
+1.22800000000E+008, +3.84186555920E+000, +0.00000000000E+000
+1.23200000000E+008, +3.94133724950E+000, +0.00000000000E+000
+1.23600000000E+008, +4.07296486224E+000, +0.00000000000E+000
+1.24000000000E+008, +4.21961645564E+000, +0.00000000000E+000
+1.24400000000E+008, +4.35805999496E+000, +0.00000000000E+000
+1.24800000000E+008, +4.44009962547E+000, +0.00000000000E+000
+1.25200000000E+008, +4.38445062108E+000, +0.00000000000E+000
+1.25600000000E+008, +4.19467065097E+000, +0.00000000000E+000
+1.26000000000E+008, +3.90026307573E+000, +0.00000000000E+000
+1.26400000000E+008, +3.57994337424E+000, +0.00000000000E+000
+1.26800000000E+008, +3.26527088915E+000, +0.00000000000E+000
+1.27200000000E+008, +2.96076923457E+000, +0.00000000000E+000
+1.27600000000E+008, +2.69187158057E+000, +0.00000000000E+000
+1.28000000000E+008, +2.45878755649E+000, +0.00000000000E+000
+1.28400000000E+008, +2.26623670243E+000, +0.00000000000E+000
+1.28800000000E+008, +2.12223628744E+000, +0.00000000000E+000
+1.29200000000E+008, +2.03109745459E+000, +0.00000000000E+000
+1.29600000000E+008, +1.99815460978E+000, +0.00000000000E+000
+1.30000000000E+008, +2.00064316106E+000, +0.00000000000E+000
+1.30400000000E+008, +2.02959744634E+000, +0.00000000000E+000
+1.30800000000E+008, +2.08322377044E+000, +0.00000000000E+000
+1.31200000000E+008, +2.14879503310E+000, +0.00000000000E+000
+1.31600000000E+008, +2.24605667310E+000, +0.00000000000E+000
+1.32000000000E+008, +2.36714126667E+000, +0.00000000000E+000
+1.32400000000E+008, +2.50293935595E+000, +0.00000000000E+000
+1.32800000000E+008, +2.65053837283E+000, +0.00000000000E+000
+1.33200000000E+008, +2.80063538384E+000, +0.00000000000E+000
+1.33600000000E+008, +2.96456244777E+000, +0.00000000000E+000
+1.34000000000E+008, +3.13699284616E+000, +0.00000000000E+000
+1.34400000000E+008, +3.31081419100E+000, +0.00000000000E+000
+1.34800000000E+008, +3.46271770496E+000, +0.00000000000E+000
+1.35200000000E+008, +3.55338749411E+000, +0.00000000000E+000
+1.35600000000E+008, +3.59737165588E+000, +0.00000000000E+000
+1.36000000000E+008, +3.60504334387E+000, +0.00000000000E+000
+1.36400000000E+008, +3.59785274197E+000, +0.00000000000E+000
+1.36800000000E+008, +3.59982667984E+000, +0.00000000000E+000
+1.37200000000E+008, +3.61571868812E+000, +0.00000000000E+000
+1.37600000000E+008, +3.66228547617E+000, +0.00000000000E+000
+1.38000000000E+008, +3.72136741622E+000, +0.00000000000E+000
+1.38400000000E+008, +3.77706376611E+000, +0.00000000000E+000
+1.38800000000E+008, +3.82373746392E+000, +0.00000000000E+000
+1.39200000000E+008, +3.85461003952E+000, +0.00000000000E+000
+1.39600000000E+008, +3.89922013969E+000, +0.00000000000E+000
+1.40000000000E+008, +3.95451571445E+000, +0.00000000000E+000
