"# Channel 1"
"# Trace 1"
Frequency, Formatted Data, Formatted Data
+6.00000000000E+007, -4.96258968315E+000, +0.00000000000E+000
+6.04000000000E+007, -4.68116432559E+000, +0.00000000000E+000
+6.08000000000E+007, -4.57706100634E+000, +0.00000000000E+000
+6.12000000000E+007, -4.63065226378E+000, +0.00000000000E+000
+6.16000000000E+007, -4.81022363396E+000, +0.00000000000E+000
+6.20000000000E+007, -4.98964413972E+000, +0.00000000000E+000
+6.24000000000E+007, -5.16354185430E+000, +0.00000000000E+000
+6.28000000000E+007, -5.25652440702E+000, +0.00000000000E+000
+6.32000000000E+007, -5.15835571384E+000, +0.00000000000E+000
+6.36000000000E+007, -4.88823594609E+000, +0.00000000000E+000
+6.40000000000E+007, -4.59217444775E+000, +0.00000000000E+000
+6.44000000000E+007, -4.47016660871E+000, +0.00000000000E+000
+6.48000000000E+007, -4.34322605682E+000, +0.00000000000E+000
+6.52000000000E+007, -4.24896487786E+000, +0.00000000000E+000
+6.56000000000E+007, -4.11295291676E+000, +0.00000000000E+000
+6.60000000000E+007, -3.99523324655E+000, +0.00000000000E+000
+6.64000000000E+007, -3.81500996791E+000, +0.00000000000E+000
+6.68000000000E+007, -3.61693365774E+000, +0.00000000000E+000
+6.72000000000E+007, -3.43114961402E+000, +0.00000000000E+000
+6.76000000000E+007, -3.23910717218E+000, +0.00000000000E+000
+6.80000000000E+007, -3.14429521712E+000, +0.00000000000E+000
+6.84000000000E+007, -3.02163787095E+000, +0.00000000000E+000
+6.88000000000E+007, -3.00686931224E+000, +0.00000000000E+000
+6.92000000000E+007, -2.97501863083E+000, +0.00000000000E+000
+6.96000000000E+007, -2.97931647089E+000, +0.00000000000E+000
+7.00000000000E+007, -2.96462243956E+000, +0.00000000000E+000
+7.04000000000E+007, -2.93819900562E+000, +0.00000000000E+000
+7.08000000000E+007, -2.87678628259E+000, +0.00000000000E+000
+7.12000000000E+007, -2.81779104707E+000, +0.00000000000E+000
+7.16000000000E+007, -2.79106495099E+000, +0.00000000000E+000
+7.20000000000E+007, -2.76439083853E+000, +0.00000000000E+000
+7.24000000000E+007, -2.94051814345E+000, +0.00000000000E+000
+7.28000000000E+007, -3.15677301930E+000, +0.00000000000E+000
+7.32000000000E+007, -3.43941381754E+000, +0.00000000000E+000
+7.36000000000E+007, -3.69340934871E+000, +0.00000000000E+000
+7.40000000000E+007, -3.97790748851E+000, +0.00000000000E+000
+7.44000000000E+007, -4.20394357373E+000, +0.00000000000E+000
+7.48000000000E+007, -4.44176372839E+000, +0.00000000000E+000
+7.52000000000E+007, -4.66629055562E+000, +0.00000000000E+000
+7.56000000000E+007, -4.84656392502E+000, +0.00000000000E+000
+7.60000000000E+007, -5.02259776925E+000, +0.00000000000E+000
+7.64000000000E+007, -5.17273808890E+000, +0.00000000000E+000
+7.68000000000E+007, -5.34180160957E+000, +0.00000000000E+000
+7.72000000000E+007, -5.44253178210E+000, +0.00000000000E+000
+7.76000000000E+007, -5.57332816148E+000, +0.00000000000E+000
+7.80000000000E+007, -5.68236382778E+000, +0.00000000000E+000
+7.84000000000E+007, -5.77199059023E+000, +0.00000000000E+000
+7.88000000000E+007, -5.87886732026E+000, +0.00000000000E+000
+7.92000000000E+007, -5.96820868894E+000, +0.00000000000E+000
+7.96000000000E+007, -6.02823572590E+000, +0.00000000000E+000
+8.00000000000E+007, -6.08622951341E+000, +0.00000000000E+000
+8.04000000000E+007, -6.14215575205E+000, +0.00000000000E+000
+8.08000000000E+007, -6.08504677065E+000, +0.00000000000E+000
+8.12000000000E+007, -6.08927656587E+000, +0.00000000000E+000
+8.16000000000E+007, -6.00867960920E+000, +0.00000000000E+000
+8.20000000000E+007, -5.89395821665E+000, +0.00000000000E+000
+8.24000000000E+007, -5.77667342199E+000, +0.00000000000E+000
+8.28000000000E+007, -5.65073345790E+000, +0.00000000000E+000
+8.32000000000E+007, -5.56544251602E+000, +0.00000000000E+000
+8.36000000000E+007, -5.53394223108E+000, +0.00000000000E+000
+8.40000000000E+007, -5.60330986392E+000, +0.00000000000E+000
+8.44000000000E+007, -5.62302671573E+000, +0.00000000000E+000
+8.48000000000E+007, -5.70468535434E+000, +0.00000000000E+000
+8.52000000000E+007, -5.75440230335E+000, +0.00000000000E+000
+8.56000000000E+007, -5.83384082079E+000, +0.00000000000E+000
+8.60000000000E+007, -5.88258177193E+000, +0.00000000000E+000
+8.64000000000E+007, -5.88054108687E+000, +0.00000000000E+000
+8.68000000000E+007, -5.86394370207E+000, +0.00000000000E+000
+8.72000000000E+007, -5.86420157978E+000, +0.00000000000E+000
+8.76000000000E+007, -5.92456128176E+000, +0.00000000000E+000
+8.80000000000E+007, -5.89490922790E+000, +0.00000000000E+000
+8.84000000000E+007, -5.90468768928E+000, +0.00000000000E+000
+8.88000000000E+007, -5.87628069394E+000, +0.00000000000E+000
+8.92000000000E+007, -5.94726375878E+000, +0.00000000000E+000
+8.96000000000E+007, -6.00752891289E+000, +0.00000000000E+000
+9.00000000000E+007, -6.07807859557E+000, +0.00000000000E+000
+9.04000000000E+007, -6.33386348357E+000, +0.00000000000E+000
+9.08000000000E+007, -6.67450847202E+000, +0.00000000000E+000
+9.12000000000E+007, -6.99030327053E+000, +0.00000000000E+000
+9.16000000000E+007, -7.26399549191E+000, +0.00000000000E+000
+9.20000000000E+007, -7.54948601291E+000, +0.00000000000E+000
+9.24000000000E+007, -7.73232539113E+000, +0.00000000000E+000
+9.28000000000E+007, -7.94375479955E+000, +0.00000000000E+000
+9.32000000000E+007, -8.11544551870E+000, +0.00000000000E+000
+9.36000000000E+007, -8.22659679963E+000, +0.00000000000E+000
+9.40000000000E+007, -8.31714188931E+000, +0.00000000000E+000
+9.44000000000E+007, -8.37683684312E+000, +0.00000000000E+000
+9.48000000000E+007, -8.43452416356E+000, +0.00000000000E+000
+9.52000000000E+007, -8.41198506172E+000, +0.00000000000E+000
+9.56000000000E+007, -8.42797208381E+000, +0.00000000000E+000
+9.60000000000E+007, -8.34856776903E+000, +0.00000000000E+000
+9.64000000000E+007, -8.29220990006E+000, +0.00000000000E+000
+9.68000000000E+007, -8.17911423085E+000, +0.00000000000E+000
+9.72000000000E+007, -8.04928700118E+000, +0.00000000000E+000
+9.76000000000E+007, -7.94523443905E+000, +0.00000000000E+000
+9.80000000000E+007, -7.83739371024E+000, +0.00000000000E+000
+9.84000000000E+007, -7.83817186105E+000, +0.00000000000E+000
+9.88000000000E+007, -7.79270516534E+000, +0.00000000000E+000
+9.92000000000E+007, -7.81715887757E+000, +0.00000000000E+000
+9.96000000000E+007, -7.74989674211E+000, +0.00000000000E+000
+1.00000000000E+008, -7.68479011743E+000, +0.00000000000E+000
+1.00400000000E+008, -7.60456981065E+000, +0.00000000000E+000
+1.00800000000E+008, -7.50208510245E+000, +0.00000000000E+000
+1.01200000000E+008, -7.42565560559E+000, +0.00000000000E+000
+1.01600000000E+008, -7.24381319322E+000, +0.00000000000E+000
+1.02000000000E+008, -7.09113343317E+000, +0.00000000000E+000
+1.02400000000E+008, -6.92410844309E+000, +0.00000000000E+000
+1.02800000000E+008, -6.76959192447E+000, +0.00000000000E+000
+1.03200000000E+008, -6.55115694858E+000, +0.00000000000E+000
+1.03600000000E+008, -6.37875736159E+000, +0.00000000000E+000
+1.04000000000E+008, -6.20525225899E+000, +0.00000000000E+000
+1.04400000000E+008, -6.08989417462E+000, +0.00000000000E+000
+1.04800000000E+008, -5.99565896913E+000, +0.00000000000E+000
+1.05200000000E+008, -6.02487820858E+000, +0.00000000000E+000
+1.05600000000E+008, -6.13476034430E+000, +0.00000000000E+000
+1.06000000000E+008, -6.29136593815E+000, +0.00000000000E+000
+1.06400000000E+008, -6.45961079716E+000, +0.00000000000E+000
+1.06800000000E+008, -6.53987012897E+000, +0.00000000000E+000
+1.07200000000E+008, -6.65443174571E+000, +0.00000000000E+000
+1.07600000000E+008, -6.70592405887E+000, +0.00000000000E+000
+1.08000000000E+008, -6.72887282432E+000, +0.00000000000E+000
+1.08400000000E+008, -6.71573213257E+000, +0.00000000000E+000
+1.08800000000E+008, -6.70341351421E+000, +0.00000000000E+000
+1.09200000000E+008, -6.68547693917E+000, +0.00000000000E+000
+1.09600000000E+008, -6.60387171937E+000, +0.00000000000E+000
+1.10000000000E+008, -6.51671839352E+000, +0.00000000000E+000
+1.10400000000E+008, -6.39056365308E+000, +0.00000000000E+000
+1.10800000000E+008, -6.23227884343E+000, +0.00000000000E+000
+1.11200000000E+008, -5.99595913527E+000, +0.00000000000E+000
+1.11600000000E+008, -5.73538834200E+000, +0.00000000000E+000
+1.12000000000E+008, -5.42969723121E+000, +0.00000000000E+000
+1.12400000000E+008, -5.10434898473E+000, +0.00000000000E+000
+1.12800000000E+008, -4.82082411327E+000, +0.00000000000E+000
+1.13200000000E+008, -4.58475309750E+000, +0.00000000000E+000
+1.13600000000E+008, -4.37785370903E+000, +0.00000000000E+000
+1.14000000000E+008, -4.17245629309E+000, +0.00000000000E+000
+1.14400000000E+008, -3.96568797714E+000, +0.00000000000E+000
+1.14800000000E+008, -3.76319607201E+000, +0.00000000000E+000
+1.15200000000E+008, -3.57321096547E+000, +0.00000000000E+000
+1.15600000000E+008, -3.32180779966E+000, +0.00000000000E+000
+1.16000000000E+008, -3.07516437407E+000, +0.00000000000E+000
+1.16400000000E+008, -2.79337755599E+000, +0.00000000000E+000
+1.16800000000E+008, -2.48428362118E+000, +0.00000000000E+000
+1.17200000000E+008, -2.20020817569E+000, +0.00000000000E+000
+1.17600000000E+008, -1.90050686746E+000, +0.00000000000E+000
+1.18000000000E+008, -1.61618113892E+000, +0.00000000000E+000
+1.18400000000E+008, -1.32587895352E+000, +0.00000000000E+000
+1.18800000000E+008, -1.04013256362E+000, +0.00000000000E+000
+1.19200000000E+008, -7.56324811547E-001, +0.00000000000E+000
+1.19600000000E+008, -4.81134094413E-001, +0.00000000000E+000
+1.20000000000E+008, -2.42371675955E-001, +0.00000000000E+000
+1.20400000000E+008, -6.23266428341E-002, +0.00000000000E+000
+1.20800000000E+008, +3.57230012220E-003, +0.00000000000E+000
+1.21200000000E+008, -6.31897369337E-002, +0.00000000000E+000
+1.21600000000E+008, -2.05020999884E-001, +0.00000000000E+000
+1.22000000000E+008, -3.62469776999E-001, +0.00000000000E+000
+1.22400000000E+008, -5.01989898918E-001, +0.00000000000E+000
+1.22800000000E+008, -6.14823696173E-001, +0.00000000000E+000
+1.23200000000E+008, -7.17035465428E-001, +0.00000000000E+000
+1.23600000000E+008, -7.93410978204E-001, +0.00000000000E+000
+1.24000000000E+008, -8.55529313772E-001, +0.00000000000E+000
+1.24400000000E+008, -9.11168936869E-001, +0.00000000000E+000
+1.24800000000E+008, -9.57047116505E-001, +0.00000000000E+000
+1.25200000000E+008, -9.96561739725E-001, +0.00000000000E+000
+1.25600000000E+008, -1.02032847734E+000, +0.00000000000E+000
+1.26000000000E+008, -1.02867350527E+000, +0.00000000000E+000
+1.26400000000E+008, -1.01964382632E+000, +0.00000000000E+000
+1.26800000000E+008, -9.91475159445E-001, +0.00000000000E+000
+1.27200000000E+008, -9.44788870335E-001, +0.00000000000E+000
+1.27600000000E+008, -8.61090960743E-001, +0.00000000000E+000
+1.28000000000E+008, -7.37480684950E-001, +0.00000000000E+000
+1.28400000000E+008, -5.74737242058E-001, +0.00000000000E+000
+1.28800000000E+008, -3.63541680339E-001, +0.00000000000E+000
+1.29200000000E+008, -1.21553233753E-001, +0.00000000000E+000
+1.29600000000E+008, +1.46207246625E-001, +0.00000000000E+000
+1.30000000000E+008, +3.97427703729E-001, +0.00000000000E+000
+1.30400000000E+008, +6.10330431184E-001, +0.00000000000E+000
+1.30800000000E+008, +7.89460889319E-001, +0.00000000000E+000
+1.31200000000E+008, +9.35258957762E-001, +0.00000000000E+000
+1.31600000000E+008, +1.07471883524E+000, +0.00000000000E+000
+1.32000000000E+008, +1.19495950527E+000, +0.00000000000E+000
+1.32400000000E+008, +1.28874530725E+000, +0.00000000000E+000
+1.32800000000E+008, +1.36366188203E+000, +0.00000000000E+000
+1.33200000000E+008, +1.41903455087E+000, +0.00000000000E+000
+1.33600000000E+008, +1.48326536162E+000, +0.00000000000E+000
+1.34000000000E+008, +1.54984471225E+000, +0.00000000000E+000
+1.34400000000E+008, +1.63572098013E+000, +0.00000000000E+000
+1.34800000000E+008, +1.74087389837E+000, +0.00000000000E+000
+1.35200000000E+008, +1.84633566324E+000, +0.00000000000E+000
+1.35600000000E+008, +1.93326652266E+000, +0.00000000000E+000
+1.36000000000E+008, +2.02053893382E+000, +0.00000000000E+000
+1.36400000000E+008, +2.12991010202E+000, +0.00000000000E+000
+1.36800000000E+008, +2.22305106247E+000, +0.00000000000E+000
+1.37200000000E+008, +2.31013300720E+000, +0.00000000000E+000
+1.37600000000E+008, +2.41211282102E+000, +0.00000000000E+000
+1.38000000000E+008, +2.52896193486E+000, +0.00000000000E+000
+1.38400000000E+008, +2.66407326576E+000, +0.00000000000E+000
+1.38800000000E+008, +2.81315891257E+000, +0.00000000000E+000
+1.39200000000E+008, +2.97614595133E+000, +0.00000000000E+000
+1.39600000000E+008, +3.16634609832E+000, +0.00000000000E+000
+1.40000000000E+008, +3.35965094031E+000, +0.00000000000E+000
